#Distance(A)    Macroscopic-Average    Planar-Average
  0.0000             7.42396             7.42386
  0.0521             7.37955             6.97931
  0.1043             7.33522             6.60363
  0.1564             7.29105             6.35384
  0.2086             7.24711             6.26616
  0.2607             7.20349             6.26635
  0.3129             7.16025             6.26616
  0.3650             7.11749             6.26635
  0.4171             7.07527             6.26616
  0.4693             7.03367             6.26635
  0.5214             6.99278             6.26616
  0.5736             6.95267             6.26635
  0.6257             6.91341             6.26616
  0.6779             6.87510             6.26635
  0.7300             6.83779             6.26616
  0.7822             6.80159             6.26635
  0.8343             6.76655             6.26616
  0.8864             6.73276             6.26635
  0.9386             6.70029             6.26616
  0.9907             6.66921             6.26635
  1.0429             6.63955             6.26616
  1.0950             6.61134             6.26636
  1.1472             6.58457             6.26617
  1.1993             6.55922             6.26636
  1.2514             6.53526             6.26617
  1.3036             6.51264             6.26636
  1.3557             6.49133             6.26617
  1.4079             6.47129             6.26636
  1.4600             6.45247             6.26617
  1.5122             6.43485             6.26636
  1.5643             6.41838             6.26617
  1.6164             6.40302             6.26636
  1.6686             6.38874             6.26617
  1.7207             6.37548             6.26636
  1.7729             6.36323             6.26617
  1.8250             6.35192             6.26636
  1.8772             6.34154             6.26617
  1.9293             6.33203             6.26636
  1.9815             6.32336             6.26616
  2.0336             6.31549             6.26636
  2.0857             6.30838             6.26616
  2.1379             6.30199             6.26636
  2.1900             6.29628             6.26616
  2.2422             6.29121             6.26636
  2.2943             6.28675             6.26616
  2.3465             6.28285             6.26636
  2.3986             6.27947             6.26616
  2.4507             6.27658             6.26636
  2.5029             6.27413             6.26615
  2.5550             6.27208             6.26636
  2.6072             6.27040             6.26615
  2.6593             6.26904             6.26636
  2.7115             6.26797             6.26614
  2.7636             6.26714             6.26635
  2.8158             6.26651             6.26614
  2.8679             6.26605             6.26635
  2.9200             6.26571             6.26613
  2.9722             6.26544             6.26634
  3.0243             6.26522             6.26612
  3.0765             6.26501             6.26633
  3.1286             6.26479             6.26610
  3.1808             6.26453             6.26631
  3.2329             6.26424             6.26608
  3.2850             6.26389             6.26629
  3.3372             6.26348             6.26606
  3.3893             6.26300             6.26627
  3.4415             6.26244             6.26603
  3.4936             6.26177             6.26623
  3.5458             6.26099             6.26599
  3.5979             6.26007             6.26619
  3.6500             6.25897             6.26593
  3.7022             6.25769             6.26613
  3.7543             6.25617             6.26586
  3.8065             6.25440             6.26605
  3.8586             6.25232             6.26577
  3.9108             6.24990             6.26594
  3.9629             6.24711             6.26564
  4.0151             6.24389             6.26580
  4.0672             6.24021             6.26548
  4.1193             6.23604             6.26561
  4.1715             6.23132             6.26525
  4.2236             6.22602             6.26536
  4.2758             6.22010             6.26495
  4.3279             6.21352             6.26501
  4.3801             6.20621             6.26455
  4.4322             6.19813             6.26454
  4.4843             6.18920             6.26400
  4.5365             6.17933             6.26391
  4.5886             6.16843             6.26325
  4.6408             6.15636             6.26304
  4.6929             6.14298             6.26224
  4.7451             6.12814             6.26186
  4.7972             6.11166             6.26086
  4.8493             6.09337             6.26026
  4.9015             6.07306             6.25898
  4.9536             6.05052             6.25806
  5.0058             6.02553             6.25639
  5.0579             5.99785             6.25504
  5.1101             5.96720             6.25285
  5.1622             5.93331             6.25089
  5.2144             5.89588             6.24798
  5.2665             5.85458             6.24517
  5.3186             5.80908             6.24126
  5.3708             5.75905             6.23729
  5.4229             5.70414             6.23198
  5.4751             5.64401             6.22637
  5.5272             5.57834             6.21912
  5.5794             5.50681             6.21123
  5.6315             5.42913             6.20127
  5.6836             5.34501             6.19019
  5.7358             5.25420             6.17644
  5.7879             5.15645             6.16089
  5.8401             5.05157             6.14181
  5.8922             4.93935             6.11996
  5.9444             4.81964             6.09340
  5.9965             4.69228             6.06270
  6.0486             4.55718             6.02560
  6.1008             4.41424             5.98241
  6.1529             4.26337             5.93044
  6.2051             4.10455             5.86963
  6.2572             3.93776             5.79668
  6.3094             3.76298             5.71100
  6.3615             3.58027             5.60825
  6.4137             3.38967             5.48647
  6.4658             3.19130             5.33940
  6.5179             2.98530             5.16823
  6.5701             2.77187             4.97001
  6.6222             2.55128             4.75405
  6.6744             2.32386             4.53678
  6.7265             2.08997             4.33434
  6.7787             1.85006             4.15714
  6.8308             1.60459             4.01639
  6.8829             1.35406             3.91740
  6.9351             1.09901             3.86403
  6.9872             0.84002             3.84824
  7.0394             0.57767             3.85770
  7.0915             0.31262             3.86998
  7.1437             0.04556             3.86545
  7.1958            -0.22279             3.81540
  7.2480            -0.49165             3.70776
  7.3001            -0.76020             3.53836
  7.3522            -1.02756             3.22454
  7.4044            -1.29288             2.69533
  7.4565            -1.55527             1.93215
  7.5087            -1.81387             0.96530
  7.5608            -2.06785            -0.13093
  7.6130            -2.31643            -1.27489
  7.6651            -2.55887            -2.34713
  7.7172            -2.79450            -3.29374
  7.7694            -3.02270            -4.14253
  7.8215            -3.24291            -4.94429
  7.8737            -3.45465            -5.76786
  7.9258            -3.65748            -6.66982
  7.9780            -3.85104            -7.68498
  8.0301            -4.03506            -8.82766
  8.0822            -4.20929           -10.07986
  8.1344            -4.37358           -11.38982
  8.1865            -4.52784           -12.67687
  8.2387            -4.67204           -13.85119
  8.2908            -4.80619           -14.82593
  8.3430            -4.93039           -15.53921
  8.3951            -5.04476           -15.95953
  8.4473            -5.14947           -16.09604
  8.4994            -5.24474           -15.98617
  8.5515            -5.33082           -15.69234
  8.6037            -5.40800           -15.27507
  8.6558            -5.47664           -14.78319
  8.7080            -5.53713           -14.22051
  8.7601            -5.58988           -13.55542
  8.8123            -5.63536           -12.71341
  8.8644            -5.67403           -11.67975
  8.9165            -5.70638           -10.50574
  8.9687            -5.73290            -9.21515
  9.0208            -5.75407            -7.83986
  9.0730            -5.77039            -6.41580
  9.1251            -5.78233            -4.98271
  9.1773            -5.79038            -3.58243
  9.2294            -5.79505            -2.25467
  9.2815            -5.79685            -1.03754
  9.3337            -5.79633             0.03802
  9.3858            -5.79403             0.94186
  9.4380            -5.79052             1.65758
  9.4901            -5.78634             2.19057
  9.5423            -5.78202             2.57583
  9.5944            -5.77801             2.85083
  9.6466            -5.77473             3.06374
  9.6987            -5.77252             3.18148
  9.7508            -5.77162             3.19304
  9.8030            -5.77223             3.11153
  9.8551            -5.77445             2.85741
  9.9073            -5.77832             2.37549
  9.9594            -5.78381             1.65594
 10.0116            -5.79084             0.73930
 10.0637            -5.79929            -0.29977
 10.1158            -5.80900            -1.38006
 10.1680            -5.81978            -2.40035
 10.2201            -5.83141            -3.28331
 10.2723            -5.84362            -4.05842
 10.3244            -5.85616            -4.78362
 10.3766            -5.86874            -5.53702
 10.4287            -5.88108            -6.38373
 10.4809            -5.89290            -7.36154
 10.5330            -5.90396            -8.47928
 10.5851            -5.91402            -9.71494
 10.6373            -5.92289           -11.01120
 10.6894            -5.93040           -12.28605
 10.7416            -5.93643           -13.44820
 10.7937            -5.94088           -14.41430
 10.8459            -5.94368           -15.12564
 10.8980            -5.94481           -15.55708
 10.9501            -5.94428           -15.72110
 11.0023            -5.94209           -15.65892
 11.0544            -5.93833           -15.43146
 11.1066            -5.93306           -15.09642
 11.1587            -5.92640           -14.69338
 11.2109            -5.91847           -14.21656
 11.2630            -5.90942           -13.62295
 11.3151            -5.89939           -12.83542
 11.3673            -5.88852           -11.85475
 11.4194            -5.87695           -10.72747
 11.4716            -5.86480            -9.47199
 11.5237            -5.85218            -8.12082
 11.5759            -5.83921            -6.70727
 11.6280            -5.82600            -5.27219
 11.6802            -5.81265            -3.85608
 11.7323            -5.79932            -2.50099
 11.7844            -5.78616            -1.24525
 11.8366            -5.77335            -0.12291
 11.8887            -5.76113             0.83590
 11.9409            -5.74971             1.60832
 11.9930            -5.73935             2.19116
 12.0452            -5.73028             2.61215
 12.0973            -5.72272             2.90707
 12.1494            -5.71685             3.12669
 12.2016            -5.71281             3.26778
 12.2537            -5.71071             3.29759
 12.3059            -5.71059             3.23883
 12.3580            -5.71247             3.02058
 12.4102            -5.71630             2.57988
 12.4623            -5.72200             1.89837
 12.5144            -5.72945             1.00964
 12.5666            -5.73849            -0.01668
 12.6187            -5.74896            -1.09799
 12.6709            -5.76063            -2.14197
 12.7230            -5.77327            -3.05398
 12.7752            -5.78662            -3.84627
 12.8273            -5.80040            -4.57531
 12.8795            -5.81430            -5.31704
 12.9316            -5.82805            -6.14271
 12.9837            -5.84135            -7.09587
 13.0359            -5.85393            -8.19041
 13.0880            -5.86554            -9.41028
 13.1402            -5.87596           -10.70375
 13.1923            -5.88500           -11.99242
 13.2445            -5.89252           -13.18514
 13.2966            -5.89840           -14.19637
 13.3487            -5.90256           -14.96196
 13.4009            -5.90495           -15.45090
 13.4530            -5.90556           -15.66908
 13.5052            -5.90441           -15.65366
 13.5573            -5.90154           -15.46286
 13.6095            -5.89703           -15.15625
 13.6616            -5.89098           -14.77758
 13.7137            -5.88351           -14.32907
 13.7659            -5.87476           -13.77342
 13.8180            -5.86486           -13.03459
 13.8702            -5.85398           -12.09319
 13.9223            -5.84223           -10.99912
 13.9745            -5.82975            -9.77047
 14.0266            -5.81667            -8.43874
 14.0788            -5.80310            -7.03532
 14.1309            -5.78917            -5.60136
 14.1830            -5.77499            -4.17588
 14.2352            -5.76070            -2.80255
 14.2873            -5.74648            -1.51899
 14.3395            -5.73250            -0.36204
 14.3916            -5.71898             0.63928
 14.4438            -5.70616             1.45770
 14.4959            -5.69428             2.08617
 14.5480            -5.68358             2.54420
 14.6002            -5.67428             2.86938
 14.6523            -5.66659             3.10713
 14.7045            -5.66066             3.27887
 14.7566            -5.65660             3.33664
 14.8088            -5.65448             3.30558
 14.8609            -5.65432             3.14650
 14.9131            -5.65609             2.78108
 14.9652            -5.65972             2.17673
 15.0173            -5.66511             1.34872
 15.0695            -5.67210             0.35720
 15.1216            -5.68052            -0.71723
 15.1738            -5.69019            -1.78594
 15.2259            -5.70086            -2.74256
 15.2781            -5.71230            -3.57208
 15.3302            -5.72423            -4.32413
 15.3823            -5.73637            -5.06613
 15.4345            -5.74842            -5.87290
 15.4866            -5.76012            -6.79370
 15.5388            -5.77118            -7.85172
 15.5909            -5.78135            -9.04086
 15.6431            -5.79043           -10.32110
 15.6952            -5.79822           -11.62072
 15.7473            -5.80457           -12.85097
 15.7995            -5.80937           -13.92219
 15.8516            -5.81253           -14.76155
 15.9038            -5.81402           -15.32620
 15.9559            -5.81380           -15.61007
 16.0081            -5.81191           -15.64129
 16.0602            -5.80838           -15.47319
 16.1124            -5.80329           -15.16796
 16.1645            -5.79672           -14.77780
 16.2166            -5.78880           -14.32197
 16.2688            -5.77966           -13.77657
 16.3209            -5.76945           -13.07693
 16.3731            -5.75831           -12.17008
 16.4252            -5.74637           -11.09912
 16.4774            -5.73379            -9.89235
 16.5295            -5.72066            -8.57564
 16.5816            -5.70713            -7.18183
 16.6338            -5.69329            -5.74917
 16.6859            -5.67927            -4.31783
 16.7381            -5.66520            -2.93022
 16.7902            -5.65123            -1.62564
 16.8424            -5.63755            -0.44108
 16.8945            -5.62436             0.59302
 16.9466            -5.61190             1.44829
 16.9988            -5.60040             2.11248
 17.0509            -5.59012             2.59920
 17.1031            -5.58127             2.94464
 17.1552            -5.57407             3.19103
 17.2074            -5.56868             3.37365
 17.2595            -5.56521             3.44957
 17.3117            -5.56374             3.43155
 17.3638            -5.56430             3.29311
 17.4159            -5.56688             2.95297
 17.4681            -5.57140             2.37576
 17.5202            -5.57778             1.57086
 17.5724            -5.58588             0.59588
 17.6245            -5.59552            -0.47000
 17.6767            -5.60653            -1.54060
 17.7288            -5.61867            -2.51525
 17.7809            -5.63171            -3.35427
 17.8331            -5.64536            -4.10366
 17.8852            -5.65934            -4.82918
 17.9374            -5.67336            -5.60998
 17.9895            -5.68712            -6.50141
 18.0417            -5.70035            -7.53221
 18.0938            -5.71278            -8.69869
 18.1459            -5.72418            -9.96585
 18.1981            -5.73435           -11.26435
 18.2502            -5.74311           -12.50794
 18.3024            -5.75034           -13.60577
 18.3545            -5.75592           -14.48376
 18.4067            -5.75980           -15.09484
 18.4588            -5.76194           -15.42978
 18.5110            -5.76233           -15.51234
 18.5631            -5.76100           -15.39383
 18.6152            -5.75801           -15.13475
 18.6674            -5.75344           -14.78847
 18.7195            -5.74738           -14.37659
 18.7717            -5.73997           -13.87849
 18.8238            -5.73133           -13.23188
 18.8760            -5.72161           -12.37812
 18.9281            -5.71094           -11.35105
 18.9802            -5.69943           -10.18295
 19.0324            -5.68721            -8.89594
 19.0845            -5.67438            -7.52343
 19.1367            -5.66106            -6.10098
 19.1888            -5.64736            -4.66988
 19.2410            -5.63340            -3.27092
 19.2931            -5.61933            -1.94559
 19.3453            -5.60533            -0.73040
 19.3974            -5.59160             0.34151
 19.4495            -5.57837             1.24232
 19.5017            -5.56591             1.95386
 19.5538            -5.55445             2.48410
 19.6060            -5.54423             2.86389
 19.6581            -5.53546             3.13489
 19.7103            -5.52829             3.33639
 19.7624            -5.52283             3.44753
 19.8145            -5.51913             3.45041
 19.8667            -5.51719             3.34805
 19.9188            -5.51695             3.07824
 19.9710            -5.51830             2.58567
 20.0231            -5.52107             1.86025
 20.0753            -5.52506             0.94007
 20.1274            -5.52999            -0.10253
 20.1795            -5.53555            -1.17025
 20.2317            -5.54138            -2.18596
 20.2838            -5.54703            -3.10897
 20.3360            -5.55206            -3.94224
 20.3881            -5.55594            -4.73510
 20.4403            -5.55813            -5.54979
 20.4924            -5.55809            -6.44238
 20.5446            -5.55528            -7.45159
 20.5967            -5.54917            -8.58606
 20.6488            -5.53927            -9.82222
 20.7010            -5.52513           -11.10321
 20.7531            -5.50633           -12.34957
 20.8053            -5.48250           -13.47221
 20.8574            -5.45333           -14.39117
 20.9096            -5.41854           -15.04919
 20.9617            -5.37791           -15.42344
 21.0138            -5.33128           -15.52599
 21.0660            -5.27852           -15.39938
 21.1181            -5.21956           -15.10268
 21.1703            -5.15439           -14.69492
