     #Energy           s           p           d       tot  
   -21.24908     0.00000     0.00000     0.00000     0.00000
   -21.14508     0.00000     0.00000     0.00000     0.00000
   -21.04208     0.00000     0.00000     0.00000     0.00000
   -20.93808     0.00000     0.00000     0.00000     0.00000
   -20.83508     0.00000     0.00000     0.00000     0.00000
   -20.73108     0.00000     0.00000     0.00000     0.00000
   -20.62808     0.00000     0.00000     0.00000     0.00000
   -20.52408     0.00000     0.00000     0.00000     0.00000
   -20.42108     0.00000     0.00000     0.00000     0.00000
   -20.31708     0.00000     0.00000     0.00000     0.00000
   -20.21408     0.00000     0.00000     0.00000     0.00000
   -20.11008     0.00000     0.00000     0.00000     0.00000
   -20.00708     0.00000     0.00000     0.00000     0.00000
   -19.90408     0.00032     0.00003     0.00005     0.00039
   -19.80008     0.01056     0.00098     0.00187     0.01342
   -19.69708     0.03193     0.00392     0.00805     0.04389
   -19.59308     0.06754     0.01255     0.02793     0.10802
   -19.49008     0.10717     0.02230     0.05104     0.18050
   -19.38608     0.14113     0.03824     0.09668     0.27604
   -19.28308     0.18419     0.06171     0.16374     0.40964
   -19.17908     0.23085     0.08208     0.22068     0.53361
   -19.07608     0.27681     0.11228     0.30823     0.69732
   -18.97208     0.31527     0.14847     0.41596     0.87971
   -18.86908     0.34872     0.18508     0.52895     1.06275
   -18.76508     0.38395     0.22524     0.64959     1.25878
   -18.66208     0.42184     0.26391     0.76094     1.44670
   -18.55808     0.46248     0.29405     0.84953     1.60605
   -18.45508     0.51508     0.32577     0.93810     1.77896
   -18.35208     0.57670     0.36373     1.07484     2.01527
   -18.24808     0.62307     0.40420     1.23572     2.26300
   -18.14508     0.65980     0.45382     1.39923     2.51285
   -18.04108     0.69478     0.51925     1.61701     2.83103
   -17.93808     0.71568     0.56505     1.77304     3.05377
   -17.83408     0.73166     0.58360     1.83025     3.14550
   -17.73108     0.75524     0.61152     1.91044     3.27720
   -17.62708     0.77202     0.63912     1.99207     3.40321
   -17.52408     0.78815     0.65525     2.04473     3.48813
   -17.42008     0.82369     0.67343     2.11490     3.61202
   -17.31708     0.87034     0.71177     2.26393     3.84604
   -17.21308     0.90236     0.76711     2.47012     4.13959
   -17.11008     0.91312     0.80323     2.60104     4.31738
   -17.00708     0.91432     0.80856     2.62066     4.34354
   -16.90308     0.91432     0.80856     2.62066     4.34355
   -16.80008     0.91432     0.80856     2.62066     4.34355
   -16.69608     0.91436     0.80857     2.62069     4.34362
   -16.59308     0.92068     0.81039     2.62552     4.35659
   -16.48908     0.94212     0.81832     2.64772     4.40816
   -16.38608     0.96477     0.82825     2.67671     4.46974
   -16.28208     0.97930     0.84804     2.75126     4.57860
   -16.17908     0.99675     0.88176     2.89488     4.77338
   -16.07508     1.02061     0.92605     3.10223     5.04890
   -15.97208     1.03669     0.95701     3.24916     5.24286
   -15.86808     1.03933     0.96141     3.26942     5.27017
   -15.76508     1.03934     0.96142     3.26944     5.27020
   -15.66108     1.03934     0.96142     3.26944     5.27020
   -15.55808     1.03934     0.96142     3.26944     5.27020
   -15.45508     1.03934     0.96142     3.26944     5.27020
   -15.35108     1.03934     0.96142     3.26944     5.27020
   -15.24808     1.03934     0.96142     3.26944     5.27020
   -15.14408     1.03934     0.96142     3.26944     5.27020
   -15.04108     1.03934     0.96142     3.26948     5.27023
   -14.93708     1.03947     0.96147     3.35475     5.35569
   -14.83408     1.04072     0.96213     4.57558     6.57843
   -14.73008     1.04314     0.96381     7.99681    10.00375
   -14.62708     1.04542     0.96576    11.89086    13.90204
   -14.52308     1.04779     0.96699    14.12006    16.13484
   -14.42008     1.05032     0.96794    16.14190    18.16015
   -14.31608     1.05407     0.96973    19.16840    21.19220
   -14.21308     1.06154     0.97319    22.75238    24.78711
   -14.11008     1.07069     0.97851    27.66685    29.71605
   -14.00608     1.07827     0.98468    35.04663    37.10957
   -13.90308     1.08523     0.99019    44.92438    46.99980
   -13.79908     1.09461     0.99574    53.41891    55.50926
   -13.69608     1.10507     1.00407    58.27898    60.38812
   -13.59208     1.11409     1.01462    62.81782    64.94653
   -13.48908     1.12146     1.02502    68.23611    70.38259
   -13.38508     1.12926     1.03256    72.95015    75.11198
   -13.28208     1.13714     1.03731    76.01284    78.18729
   -13.17808     1.14609     1.04423    79.05019    81.24051
   -13.07508     1.15551     1.05394    84.41407    86.62352
   -12.97108     1.16231     1.06259    90.90375    93.12865
   -12.86808     1.16805     1.06862    95.09818    97.33486
   -12.76408     1.17477     1.07581    97.18707    99.43765
   -12.66108     1.18076     1.08256    98.87613   101.13944
   -12.55808     1.18519     1.08676   100.62856   102.90052
   -12.45408     1.18844     1.08977   103.05454   105.33275
   -12.35108     1.19137     1.09132   104.85912   107.14180
   -12.24708     1.19765     1.09414   106.51378   108.80557
   -12.14408     1.20348     1.09805   109.43743   111.73896
   -12.04008     1.20745     1.10375   112.25393   114.56513
   -11.93708     1.21257     1.11194   114.33359   116.65809
   -11.83308     1.21624     1.11834   115.82510   118.15968
   -11.73008     1.21723     1.12262   116.79009   119.12994
   -11.62608     1.21755     1.12747   117.72457   120.06959
   -11.52308     1.21766     1.13013   118.20836   120.55615
   -11.41908     1.21766     1.13017   118.21536   120.56319
   -11.31608     1.21766     1.13017   118.21536   120.56319
   -11.21308     1.21766     1.13017   118.21536   120.56319
   -11.10908     1.21766     1.13017   118.21536   120.56319
   -11.00608     1.21766     1.13017   118.21536   120.56319
   -10.90208     1.21766     1.13017   118.21536   120.56319
   -10.79908     1.21766     1.13017   118.21536   120.56319
   -10.69508     1.21766     1.13017   118.21536   120.56319
   -10.59208     1.21766     1.13017   118.21536   120.56319
   -10.48808     1.21766     1.13017   118.21536   120.56319
   -10.38508     1.21766     1.13017   118.21536   120.56319
   -10.28108     1.21766     1.13017   118.21536   120.56319
   -10.17808     1.21766     1.13017   118.21536   120.56319
   -10.07408     1.21766     1.13017   118.21536   120.56319
    -9.97108     1.21766     1.13017   118.21536   120.56319
    -9.86708     1.21766     1.13017   118.21536   120.56319
    -9.76408     1.21766     1.13017   118.21536   120.56319
    -9.66108     1.21766     1.13017   118.21536   120.56319
    -9.55708     1.21766     1.13017   118.21536   120.56319
    -9.45408     1.21766     1.13017   118.21536   120.56319
    -9.35008     1.21766     1.13017   118.21536   120.56319
    -9.24708     1.21766     1.13017   118.21536   120.56319
    -9.14308     1.21766     1.13017   118.21536   120.56319
    -9.04008     1.21766     1.13017   118.21536   120.56319
    -8.93608     1.21766     1.13017   118.21536   120.56319
    -8.83308     1.21766     1.13017   118.21536   120.56319
    -8.72908     1.21766     1.13017   118.21536   120.56319
    -8.62608     1.21766     1.13017   118.21536   120.56319
    -8.52208     1.21766     1.13017   118.21536   120.56319
    -8.41908     1.21766     1.13017   118.21536   120.56319
    -8.31608     1.21766     1.13017   118.21536   120.56319
    -8.21208     1.21766     1.13017   118.21536   120.56319
    -8.10908     1.21812     1.13021   118.21539   120.56372
    -8.00508     1.25833     1.13362   118.21839   120.61034
    -7.90208     1.36574     1.14285   118.22511   120.73370
    -7.79808     1.61926     1.16434   118.23906   121.02267
    -7.69508     1.87548     1.18632   118.25375   121.31555
    -7.59108     1.97170     1.19484   118.25993   121.42647
    -7.48808     2.10655     1.20698   118.26858   121.58212
    -7.38408     2.27724     1.22321   118.27937   121.77982
    -7.28108     2.44420     1.24449   118.28977   121.97846
    -7.17708     2.72647     1.28226   118.31118   122.31990
    -7.07408     2.96058     1.31275   118.33132   122.60464
    -6.97008     3.08795     1.33221   118.34259   122.76276
    -6.86708     3.30038     1.36846   118.36307   123.03191
    -6.76408     3.58417     1.41762   118.39350   123.39530
    -6.66008     3.89536     1.47049   118.42690   123.79275
    -6.55708     4.21163     1.52429   118.45907   124.19499
    -6.45308     4.46669     1.56836   118.48643   124.52148
    -6.35008     4.62944     1.59501   118.50317   124.72762
    -6.24608     4.80242     1.62379   118.51800   124.94421
    -6.14308     5.03063     1.69065   118.54554   125.26683
    -6.03908     5.24421     1.76668   118.58110   125.59199
    -5.93608     5.41398     1.80877   118.60698   125.82973
    -5.83208     5.58911     1.84267   118.62957   126.06136
    -5.72908     5.77586     1.90626   118.66276   126.34489
    -5.62508     5.88803     1.98680   118.69162   126.56644
    -5.52208     6.00750     2.09207   118.72229   126.82186
    -5.41808     6.17450     2.21811   118.76227   127.15488
    -5.31508     6.29013     2.32492   118.79759   127.41264
    -5.21208     6.38693     2.44057   118.83680   127.66430
    -5.10808     6.48406     2.56080   118.87737   127.92223
    -5.00508     6.58567     2.67308   118.91657   128.17532
    -4.90108     6.72681     2.80921   118.96694   128.50296
    -4.79808     6.83848     2.93673   119.01320   128.78842
    -4.69408     6.91575     3.07835   119.05981   129.05390
    -4.59108     6.99825     3.27441   119.11881   129.39147
    -4.48708     7.08484     3.48592   119.18309   129.75384
    -4.38408     7.15330     3.67035   119.23859   130.06224
    -4.28008     7.20812     3.83779   119.28778   130.33370
    -4.17708     7.28697     4.02626   119.35013   130.66337
    -4.07308     7.38337     4.22955   119.42322   131.03613
    -3.97008     7.46837     4.42367   119.49277   131.38481
    -3.86708     7.54723     4.60186   119.55440   131.70349
    -3.76308     7.60902     4.77348   119.61138   131.99388
    -3.66008     7.64850     4.89254   119.65271   132.19376
    -3.55608     7.70865     5.05922   119.71532   132.48318
    -3.45308     7.77309     5.29600   119.80254   132.87163
    -3.34908     7.81843     5.50350   119.88405   133.20598
    -3.24608     7.85419     5.66851   119.95541   133.47810
    -3.14208     7.88191     5.80208   120.01426   133.69825
    -3.03908     7.90946     5.93759   120.07441   133.92146
    -2.93508     7.93708     6.07608   120.15116   134.16432
    -2.83208     7.96164     6.21720   120.24039   134.41923
    -2.72808     7.99198     6.36228   120.32952   134.68378
    -2.62508     8.02687     6.51368   120.42029   134.96084
    -2.52108     8.05010     6.63935   120.50561   135.19506
    -2.41808     8.06813     6.76126   120.60133   135.43072
    -2.31508     8.08839     6.89876   120.71400   135.70114
    -2.21108     8.10734     7.02187   120.81278   135.94199
    -2.10808     8.13405     7.15755   120.90489   136.19649
    -2.00408     8.15989     7.28368   120.99182   136.43539
    -1.90108     8.17671     7.37874   121.07971   136.63516
    -1.79708     8.19286     7.47990   121.18559   136.85836
    -1.69408     8.20663     7.56996   121.27623   137.05282
    -1.59008     8.22507     7.64511   121.34728   137.21746
    -1.48708     8.24828     7.72004   121.41404   137.38236
    -1.38308     8.27859     7.79370   121.48257   137.55485
    -1.28008     8.33341     7.87641   121.55348   137.76330
    -1.17608     8.39003     7.96380   121.62552   137.97935
    -1.07308     8.41747     8.02159   121.69361   138.13267
    -0.97008     8.42945     8.06941   121.77584   138.27469
    -0.86608     8.43518     8.11120   121.84708   138.39346
    -0.76308     8.43828     8.13171   121.88022   138.45021
    -0.65908     8.44360     8.16983   121.93213   138.54556
    -0.55608     8.45327     8.21614   121.99514   138.66454
    -0.45208     8.56657     8.27454   122.04035   138.88146
    -0.34908     8.72463     8.34269   122.08620   139.15352
    -0.24508     8.79137     8.38329   122.12930   139.30396
    -0.14208     8.81286     8.40642   122.16579   139.38507
    -0.03808     8.85465     8.43904   122.20268   139.49638
     0.06492     8.92908     8.48779   122.24358   139.66045
     0.16892     8.97690     8.51985   122.27100   139.76775
     0.27192     8.98646     8.52812   122.28846   139.80304
     0.37592     8.98660     8.53066   122.30584   139.82310
     0.47892     8.98663     8.53156   122.31262   139.83081
     0.58192     8.98677     8.53171   122.31361   139.83210
     0.68592     9.03924     8.55969   122.31562   139.91455
     0.78892     9.16048     8.62427   122.32023   140.10497
     0.89292     9.22981     8.66117   122.32286   140.21384
     0.99592     9.23024     8.66139   122.32288   140.21451
     1.09992     9.23024     8.66139   122.32288   140.21451
     1.20292     9.23034     8.66141   122.32288   140.21464
     1.30692     9.24725     8.66414   122.32352   140.23490
     1.40992     9.27552     8.66869   122.32459   140.26880
     1.51392     9.28702     8.67055   122.32502   140.28259
     1.61692     9.28704     8.67055   122.32502   140.28261
     1.72092     9.28704     8.67055   122.32502   140.28261
     1.82392     9.28704     8.67055   122.32502   140.28261
     1.92692     9.28704     8.67055   122.32502   140.28261
     2.03092     9.28704     8.67055   122.32502   140.28261
     2.13392     9.28723     8.67065   122.32503   140.28290
     2.23792     9.30240     8.67833   122.32579   140.30652
     2.34092     9.32368     8.68909   122.32686   140.33963
     2.44492     9.34281     8.69543   122.32760   140.36585
     2.54792     9.39948     8.72815   122.33126   140.45889
     2.65192     9.50881     8.86502   122.34464   140.71847
     2.75492     9.59977     8.98317   122.35622   140.93916
     2.85892     9.63081     8.99569   122.35796   140.98446
     2.96192     9.63653     8.99744   122.35825   140.99222
     3.06592     9.66431     9.00605   122.35907   141.02943
     3.16892     9.71524     9.02188   122.36058   141.09770
     3.27292     9.75884     9.04376   122.36332   141.16591
     3.37592     9.82630     9.09214   122.36964   141.28809
     3.47892     9.92959     9.14882   122.37660   141.45500
     3.58292    10.04564     9.22807   122.38783   141.66154
     3.68592    10.13312     9.31047   122.40032   141.84391
     3.78992    10.20497     9.38690   122.41198   142.00385
     3.89292    10.26592     9.44722   122.42117   142.13432
     3.99692    10.32465     9.47677   122.42547   142.22689
     4.09992    10.43568     9.52989   122.43303   142.39860
     4.20392    10.66319     9.61877   122.44977   142.73173
     4.30692    10.94092     9.70937   122.47230   143.12258
     4.41092    11.12688     9.77222   122.48828   143.38739
     4.51392    11.25672     9.82485   122.49780   143.57936
     4.61792    11.37865     9.87521   122.50667   143.76054
     4.72092    11.57246     9.94081   122.52088   144.03414
     4.82392    11.87517    10.02720   122.54092   144.44329
     4.92792    12.08900    10.09085   122.55449   144.73433
     5.03092    12.23855    10.16463   122.56825   144.97143
     5.13492    12.51206    10.28260   122.59284   145.38750
     5.23792    12.86688    10.40637   122.62026   145.89351
     5.34192    13.17982    10.51773   122.64403   146.34158
     5.44492    13.31975    10.59095   122.65716   146.56787
     5.54892    13.44577    10.66775   122.67311   146.78663
     5.65192    13.79612    10.82156   122.70643   147.32410
     5.75592    14.13490    10.95403   122.73220   147.82113
     5.85892    14.36030    11.04641   122.74734   148.15405
     5.96292    14.58390    11.18029   122.76800   148.53218
     6.06592    14.75681    11.34734   122.79492   148.89908
     6.16992    14.86915    11.54094   122.82415   149.23424
     6.27292    14.99832    11.74569   122.85597   149.59998
     6.37592    15.24586    11.99343   122.90311   150.14240
     6.47992    15.47598    12.20012   122.94359   150.61969
     6.58292    15.62364    12.30655   122.96461   150.89479
     6.68692    15.74073    12.41474   122.98654   151.14200
     6.78992    15.86847    12.57078   123.01838   151.45763
     6.89392    16.03209    12.77606   123.06192   151.87007
     6.99692    16.12947    12.93567   123.09782   152.16297
     7.10092    16.18851    13.05498   123.12692   152.37042
     7.20392    16.30424    13.28736   123.18194   152.77353
     7.30792    16.41127    13.52763   123.23821   153.17711
     7.41092    16.46897    13.71263   123.27783   153.45943
     7.51492    16.55701    13.93804   123.32702   153.82206
     7.61792    16.68487    14.18685   123.38888   154.26060
     7.72092    16.79494    14.42508   123.44699   154.66701
     7.82492    16.86653    14.64346   123.49475   155.00474
     7.92792    16.92630    14.88520   123.54414   155.35564
     8.03192    16.98716    15.11916   123.59089   155.69720
     8.13492    17.03414    15.26981   123.62419   155.92815
     8.23892    17.05606    15.34906   123.64340   156.04852
     8.34192    17.07331    15.40378   123.65550   156.13259
     8.44592    17.10854    15.48604   123.67297   156.26755
     8.54892    17.13243    15.54159   123.68477   156.35879
     8.65292    17.13303    15.54298   123.68506   156.36106
     8.75592    17.13303    15.54298   123.68506   156.36106
     8.85992    17.13303    15.54298   123.68506   156.36106
     8.96292    17.13303    15.54298   123.68506   156.36106
     9.06692    17.13303    15.54298   123.68506   156.36106
     9.16992    17.13303    15.54298   123.68506   156.36106
     9.27292    17.13303    15.54298   123.68506   156.36106
     9.37692    17.13303    15.54298   123.68506   156.36106
     9.47992    17.13303    15.54298   123.68506   156.36106
     9.58392    17.13303    15.54298   123.68506   156.36106
     9.68692    17.13303    15.54298   123.68506   156.36106
     9.79092    17.13303    15.54298   123.68506   156.36106
