     #Energy           s           p           d       tot  
   -21.24908     0.00000     0.00000     0.00000     0.00000
   -21.14508     0.00000     0.00000     0.00000     0.00000
   -21.04208     0.00000     0.00000     0.00000     0.00000
   -20.93808     0.00000     0.00000     0.00000     0.00000
   -20.83508     0.00000     0.00000     0.00000     0.00000
   -20.73108     0.00000     0.00000     0.00000     0.00000
   -20.62808     0.00000     0.00000     0.00000     0.00000
   -20.52408     0.00000     0.00000     0.00000     0.00000
   -20.42108     0.00000     0.00000     0.00000     0.00000
   -20.31708     0.00000     0.00000     0.00000     0.00000
   -20.21408     0.00000     0.00000     0.00000     0.00000
   -20.11008     0.00000     0.00000     0.00000     0.00000
   -20.00708     0.00000     0.00000     0.00000     0.00000
   -19.90408     0.00210     0.00000     0.00000     0.00211
   -19.80008     0.07255     0.00016     0.00000     0.07271
   -19.69708     0.23565     0.00050     0.00000     0.23615
   -19.59308     0.57176     0.00115     0.00000     0.57291
   -19.49008     0.94808     0.00191     0.00000     0.94999
   -19.38608     1.41315     0.00273     0.00000     1.41588
   -19.28308     2.05844     0.00403     0.00000     2.06247
   -19.17908     2.66365     0.00592     0.00000     2.66957
   -19.07608     3.43173     0.00895     0.00000     3.44068
   -18.97208     4.27159     0.01230     0.00000     4.28389
   -18.86908     5.13464     0.01546     0.00000     5.15010
   -18.76508     6.06939     0.01850     0.00000     6.08789
   -18.66208     6.98700     0.02120     0.00000     7.00820
   -18.55808     7.77865     0.02367     0.00000     7.80231
   -18.45508     8.65639     0.02663     0.00000     8.68302
   -18.35208     9.81111     0.03031     0.00000     9.84142
   -18.24808    10.95734     0.03377     0.00000    10.99110
   -18.14508    12.12649     0.03735     0.00000    12.16384
   -18.04108    13.55320     0.04218     0.00000    13.59538
   -17.93808    14.51571     0.04564     0.00000    14.56135
   -17.83408    14.95444     0.04716     0.00000    15.00160
   -17.73108    15.61534     0.04935     0.00000    15.66469
   -17.62708    16.23105     0.05138     0.00000    16.28244
   -17.52408    16.63756     0.05281     0.00000    16.69037
   -17.42008    17.24619     0.05515     0.00000    17.30135
   -17.31708    18.39393     0.05969     0.00000    18.45363
   -17.21308    19.77260     0.06446     0.00000    19.83706
   -17.11008    20.57239     0.06677     0.00000    20.63917
   -17.00708    20.68888     0.06710     0.00000    20.75599
   -16.90308    20.68892     0.06710     0.00000    20.75603
   -16.80008    20.68892     0.06710     0.00000    20.75603
   -16.69608    20.68934     0.06711     0.00000    20.75646
   -16.59308    20.76738     0.06849     0.00000    20.83586
   -16.48908    21.06821     0.07378     0.00000    21.14198
   -16.38608    21.41888     0.07996     0.00000    21.49884
   -16.28208    21.92988     0.08981     0.00000    22.01970
   -16.17908    22.76119     0.10801     0.00000    22.86920
   -16.07508    23.90208     0.13462     0.00000    24.03670
   -15.97208    24.71448     0.15331     0.00000    24.86779
   -15.86808    24.83389     0.15599     0.00000    24.98988
   -15.76508    24.83402     0.15599     0.00000    24.99001
   -15.66108    24.83402     0.15599     0.00000    24.99001
   -15.55808    24.83402     0.15599     0.00000    24.99001
   -15.45508    24.83402     0.15599     0.00000    24.99001
   -15.35108    24.83402     0.15599     0.00000    24.99001
   -15.24808    24.83402     0.15599     0.00000    24.99001
   -15.14408    24.83402     0.15599     0.00000    24.99001
   -15.04108    24.83402     0.15599     0.00000    24.99001
   -14.93708    24.83423     0.15726     0.00000    24.99150
   -14.83408    24.83635     0.17241     0.00000    25.00876
   -14.73008    24.84422     0.20317     0.00000    25.04739
   -14.62708    24.85519     0.23473     0.00000    25.08991
   -14.52308    24.86310     0.25794     0.00000    25.12104
   -14.42008    24.87029     0.27696     0.00000    25.14725
   -14.31608    24.88563     0.30752     0.00000    25.19315
   -14.21308    24.91725     0.35478     0.00000    25.27204
   -14.11008    24.96593     0.41157     0.00000    25.37750
   -14.00608    25.01677     0.46946     0.00000    25.48623
   -13.90308    25.05758     0.51645     0.00000    25.57403
   -13.79908    25.11001     0.55152     0.00000    25.66153
   -13.69608    25.19284     0.58744     0.00000    25.78028
   -13.59208    25.28988     0.63454     0.00000    25.92441
   -13.48908    25.38452     0.68325     0.00000    26.06777
   -13.38508    25.45957     0.72530     0.00000    26.18487
   -13.28208    25.51787     0.75878     0.00000    26.27665
   -13.17808    25.61041     0.78878     0.00000    26.39919
   -13.07508    25.72978     0.82758     0.00000    26.55736
   -12.97108    25.82553     0.86371     0.00000    26.68925
   -12.86808    25.89036     0.88591     0.00000    26.77627
   -12.76408    25.96701     0.90538     0.00000    26.87240
   -12.66108    26.03855     0.92714     0.00000    26.96569
   -12.55808    26.08266     0.94670     0.00000    27.02936
   -12.45408    26.11560     0.96166     0.00000    27.07725
   -12.35108    26.13916     0.97121     0.00000    27.11038
   -12.24708    26.18484     0.98823     0.00000    27.17306
   -12.14408    26.24526     1.01010     0.00000    27.25537
   -12.04008    26.33857     1.02698     0.00000    27.36555
   -11.93708    26.47850     1.04388     0.00000    27.52238
   -11.83308    26.59323     1.05838     0.00000    27.65162
   -11.73008    26.67921     1.06736     0.00000    27.74656
   -11.62608    26.77654     1.07411     0.00000    27.85065
   -11.52308    26.82736     1.07712     0.00000    27.90448
   -11.41908    26.82807     1.07715     0.00000    27.90522
   -11.31608    26.82807     1.07715     0.00000    27.90522
   -11.21308    26.82807     1.07715     0.00000    27.90522
   -11.10908    26.82807     1.07715     0.00000    27.90522
   -11.00608    26.82807     1.07715     0.00000    27.90522
   -10.90208    26.82807     1.07715     0.00000    27.90522
   -10.79908    26.82807     1.07715     0.00000    27.90522
   -10.69508    26.82807     1.07715     0.00000    27.90522
   -10.59208    26.82807     1.07715     0.00000    27.90522
   -10.48808    26.82807     1.07715     0.00000    27.90522
   -10.38508    26.82807     1.07715     0.00000    27.90522
   -10.28108    26.82807     1.07715     0.00000    27.90522
   -10.17808    26.82807     1.07715     0.00000    27.90522
   -10.07408    26.82807     1.07715     0.00000    27.90522
    -9.97108    26.82807     1.07715     0.00000    27.90522
    -9.86708    26.82807     1.07715     0.00000    27.90522
    -9.76408    26.82807     1.07715     0.00000    27.90522
    -9.66108    26.82807     1.07715     0.00000    27.90522
    -9.55708    26.82807     1.07715     0.00000    27.90522
    -9.45408    26.82807     1.07715     0.00000    27.90522
    -9.35008    26.82807     1.07715     0.00000    27.90522
    -9.24708    26.82807     1.07715     0.00000    27.90522
    -9.14308    26.82807     1.07715     0.00000    27.90522
    -9.04008    26.82807     1.07715     0.00000    27.90522
    -8.93608    26.82807     1.07715     0.00000    27.90522
    -8.83308    26.82807     1.07715     0.00000    27.90522
    -8.72908    26.82807     1.07715     0.00000    27.90522
    -8.62608    26.82807     1.07715     0.00000    27.90522
    -8.52208    26.82807     1.07715     0.00000    27.90522
    -8.41908    26.82807     1.07715     0.00000    27.90522
    -8.31608    26.82807     1.07715     0.00000    27.90522
    -8.21208    26.82807     1.07715     0.00000    27.90522
    -8.10908    26.82809     1.07763     0.00000    27.90572
    -8.00508    26.83004     1.12014     0.00000    27.95017
    -7.90208    26.83392     1.23818     0.00000    28.07211
    -7.79808    26.84254     1.52266     0.00000    28.36520
    -7.69508    26.85225     1.81035     0.00000    28.66260
    -7.59108    26.85657     1.91896     0.00000    28.77553
    -7.48808    26.86243     2.07852     0.00000    28.94095
    -7.38408    26.86938     2.28533     0.00000    29.15471
    -7.28108    26.87673     2.50033     0.00000    29.37706
    -7.17708    26.89415     2.87238     0.00000    29.76653
    -7.07408    26.91044     3.17952     0.00000    30.08996
    -6.97008    26.91857     3.35277     0.00000    30.27135
    -6.86708    26.93390     3.65323     0.00000    30.58713
    -6.76408    26.95795     4.05671     0.00000    31.01465
    -6.66008    26.98522     4.49888     0.00000    31.48409
    -6.55708    27.01067     4.94666     0.00000    31.95733
    -6.45308    27.03297     5.31230     0.00000    32.34527
    -6.35008    27.04708     5.54324     0.00000    32.59032
    -6.24608    27.05990     5.78946     0.00000    32.84935
    -6.14308    27.08166     6.18821     0.00000    33.26987
    -6.03908    27.10890     6.60075     0.00000    33.70965
    -5.93608    27.12991     6.88953     0.00000    34.01944
    -5.83208    27.14911     7.17128     0.00000    34.32039
    -5.72908    27.17547     7.55717     0.00000    34.73263
    -5.62508    27.19507     7.91576     0.00000    35.11082
    -5.52208    27.21485     8.35334     0.00000    35.56820
    -5.41808    27.24219     8.90982     0.00000    36.15201
    -5.31508    27.26342     9.37201     0.00000    36.63543
    -5.21208    27.28232     9.86074     0.00000    37.14306
    -5.10808    27.29964    10.36755     0.00000    37.66719
    -5.00508    27.31978    10.86226     0.00000    38.18204
    -4.90108    27.34875    11.49113     0.00000    38.83988
    -4.79808    27.37270    12.07673     0.00000    39.44943
    -4.69408    27.39380    12.69723     0.00000    40.09103
    -4.59108    27.41794    13.52511     0.00000    40.94305
    -4.48708    27.44402    14.42624     0.00000    41.87026
    -4.38408    27.46457    15.22567     0.00000    42.69025
    -4.28008    27.48226    15.96785     0.00000    43.45011
    -4.17708    27.51074    16.87407     0.00000    44.38481
    -4.07308    27.54334    17.91454     0.00000    45.45788
    -3.97008    27.56945    18.91057     0.00000    46.48002
    -3.86708    27.59504    19.83287     0.00000    47.42791
    -3.76308    27.61624    20.71708     0.00000    48.33332
    -3.66008    27.63031    21.35106     0.00000    48.98138
    -3.55608    27.65551    22.26906     0.00000    49.92457
    -3.45308    27.68294    23.55767     0.00000    51.24061
    -3.34908    27.70203    24.76184     0.00000    52.46388
    -3.24608    27.71963    25.80295     0.00000    53.52258
    -3.14208    27.73540    26.67595     0.00000    54.41135
    -3.03908    27.75083    27.55224     0.00000    55.30307
    -2.93508    27.76536    28.59108     0.00000    56.35644
    -2.83208    27.77654    29.82398     0.00000    57.60052
    -2.72808    27.79238    31.08656     0.00000    58.87893
    -2.62508    27.81248    32.38529     0.00000    60.19778
    -2.52108    27.82725    33.56503     0.00000    61.39228
    -2.41808    27.84092    34.80493     0.00000    62.64584
    -2.31508    27.85517    36.27495     0.00000    64.13012
    -2.21108    27.86818    37.57582     0.00000    65.44400
    -2.10808    27.88573    38.93613     0.00000    66.82186
    -2.00408    27.90302    40.35558     0.00000    68.25860
    -1.90108    27.91597    41.69052     0.00000    69.60649
    -1.79708    27.92895    43.11707     0.00000    71.04602
    -1.69408    27.94076    44.40313     0.00000    72.34389
    -1.59008    27.95334    45.53248     0.00000    73.48582
    -1.48708    27.96582    46.61037     0.00000    74.57620
    -1.38308    27.97953    47.69827     0.00000    75.67780
    -1.28008    27.99364    48.77754     0.00000    76.77118
    -1.17608    28.00588    49.93477     0.00000    77.94065
    -1.07308    28.01430    50.99929     0.00000    79.01358
    -0.97008    28.02097    52.22773     0.00000    80.24870
    -0.86608    28.02664    53.37568     0.00000    81.40233
    -0.76308    28.02988    53.93798     0.00000    81.96786
    -0.65908    28.03512    54.70156     0.00000    82.73668
    -0.55608    28.04317    55.73665     0.00000    83.77982
    -0.45208    28.05732    56.57717     0.00000    84.63449
    -0.34908    28.07439    57.44791     0.00000    85.52229
    -0.24508    28.08514    58.35204     0.00000    86.43717
    -0.14208    28.09172    59.30504     0.00000    87.39676
    -0.03808    28.10031    60.43579     0.00000    88.53610
     0.06492    28.10991    61.70243     0.00000    89.81234
     0.16892    28.11492    62.55855     0.00000    90.67347
     0.27192    28.11614    63.09723     0.00000    91.21338
     0.37592    28.11658    63.64363     0.00000    91.76021
     0.47892    28.11668    63.85781     0.00000    91.97449
     0.58192    28.11669    63.89182     0.00000    92.00851
     0.68592    28.11886    63.92007     0.00000    92.03892
     0.78892    28.12388    63.98539     0.00000    92.10926
     0.89292    28.12675    64.02280     0.00000    92.14955
     0.99592    28.12677    64.02303     0.00000    92.14980
     1.09992    28.12677    64.02303     0.00000    92.14980
     1.20292    28.12683    64.02309     0.00000    92.14992
     1.30692    28.13677    64.03271     0.00000    92.16948
     1.40992    28.15340    64.04881     0.00000    92.20221
     1.51392    28.16016    64.05536     0.00000    92.21551
     1.61692    28.16017    64.05537     0.00000    92.21554
     1.72092    28.16017    64.05537     0.00000    92.21554
     1.82392    28.16017    64.05537     0.00000    92.21554
     1.92692    28.16017    64.05537     0.00000    92.21554
     2.03092    28.16017    64.05537     0.00000    92.21554
     2.13392    28.16027    64.05549     0.00000    92.21576
     2.23792    28.16870    64.06496     0.00000    92.23366
     2.34092    28.18052    64.07826     0.00000    92.25877
     2.44492    28.19071    64.09335     0.00000    92.28406
     2.54792    28.21801    64.14572     0.00000    92.36373
     2.65192    28.27010    64.25825     0.00000    92.52835
     2.75492    28.31435    64.35045     0.00000    92.66480
     2.85892    28.32986    64.37552     0.00000    92.70537
     2.96192    28.33267    64.37982     0.00000    92.71249
     3.06592    28.34575    64.40741     0.00000    92.75317
     3.16892    28.36975    64.45802     0.00000    92.82777
     3.27292    28.39032    64.50179     0.00000    92.89211
     3.37592    28.42209    64.56292     0.00000    92.98501
     3.47892    28.46921    64.65732     0.00000    93.12653
     3.58292    28.51816    64.76239     0.00000    93.28055
     3.68592    28.55436    64.84058     0.00000    93.39495
     3.78992    28.58515    64.90928     0.00000    93.49443
     3.89292    28.61048    64.96813     0.00000    93.57862
     3.99692    28.63216    65.02293     0.00000    93.65509
     4.09992    28.67032    65.11958     0.00000    93.78990
     4.20392    28.72936    65.28690     0.00000    94.01625
     4.30692    28.78431    65.46348     0.00000    94.24779
     4.41092    28.82509    65.59712     0.00000    94.42222
     4.51392    28.86508    65.72024     0.00000    94.58531
     4.61792    28.90020    65.83275     0.00000    94.73295
     4.72092    28.94490    66.00022     0.00000    94.94512
     4.82392    29.00740    66.24639     0.00000    95.25379
     4.92792    29.05220    66.41809     0.00000    95.47029
     5.03092    29.08520    66.54735     0.00000    95.63256
     5.13492    29.14306    66.78081     0.00000    95.92387
     5.23792    29.21445    67.06603     0.00000    96.28048
     5.34192    29.27751    67.31769     0.00000    96.59520
     5.44492    29.31077    67.44446     0.00000    96.75524
     5.54892    29.33783    67.57914     0.00000    96.91697
     5.65192    29.40479    67.91444     0.00000    97.31923
     5.75592    29.46873    68.21694     0.00000    97.68567
     5.85892    29.50741    68.39927     0.00000    97.90667
     5.96292    29.54751    68.58441     0.00000    98.13192
     6.06592    29.58931    68.77438     0.00000    98.36369
     6.16992    29.62595    68.93683     0.00000    98.56278
     6.27292    29.65725    69.09412     0.00000    98.75136
     6.37592    29.70848    69.38654     0.00000    99.09502
     6.47992    29.75779    69.66790     0.00000    99.42569
     6.58292    29.78810    69.84440     0.00000    99.63250
     6.68692    29.80966    69.99134     0.00000    99.80100
     6.78992    29.83589    70.15133     0.00000    99.98723
     6.89392    29.87174    70.36694     0.00000   100.23868
     6.99692    29.89496    70.52195     0.00000   100.41690
     7.10092    29.91544    70.63512     0.00000   100.55056
     7.20392    29.95280    70.85578     0.00000   100.80857
     7.30792    29.98602    71.06930     0.00000   101.05533
     7.41092    30.01239    71.21702     0.00000   101.22941
     7.51492    30.04513    71.41232     0.00000   101.45745
     7.61792    30.07529    71.65314     0.00000   101.72842
     7.72092    30.10348    71.87862     0.00000   101.98210
     7.82492    30.12758    72.05533     0.00000   102.18291
     7.92792    30.14677    72.22324     0.00000   102.37001
     8.03192    30.16312    72.38605     0.00000   102.54917
     8.13492    30.17467    72.50713     0.00000   102.68180
     8.23892    30.18073    72.57244     0.00000   102.75317
     8.34192    30.18474    72.61608     0.00000   102.80083
     8.44592    30.19167    72.68876     0.00000   102.88043
     8.54892    30.19647    72.73859     0.00000   102.93505
     8.65292    30.19659    72.73986     0.00000   102.93645
     8.75592    30.19659    72.73986     0.00000   102.93645
     8.85992    30.19659    72.73986     0.00000   102.93645
     8.96292    30.19659    72.73986     0.00000   102.93645
     9.06692    30.19659    72.73986     0.00000   102.93645
     9.16992    30.19659    72.73986     0.00000   102.93645
     9.27292    30.19659    72.73986     0.00000   102.93645
     9.37692    30.19659    72.73986     0.00000   102.93645
     9.47992    30.19659    72.73986     0.00000   102.93645
     9.58392    30.19659    72.73986     0.00000   102.93645
     9.68692    30.19659    72.73986     0.00000   102.93645
     9.79092    30.19659    72.73986     0.00000   102.93645
